  R(mm),x(-),
  0.0000E+00,  0.4577E+00,
  0.1000E-07,  0.4575E+00,
  0.2000E-07,  0.4574E+00,
  0.3000E-07,  0.4572E+00,
  0.4000E-07,  0.4568E+00,
  0.5000E-07,  0.4564E+00,
  0.6000E-07,  0.4559E+00,
  0.7000E-07,  0.4553E+00,
  0.8000E-07,  0.4546E+00,
  0.9000E-07,  0.4538E+00,
  0.1000E-06,  0.4530E+00,
  0.1100E-06,  0.4520E+00,
  0.1200E-06,  0.4509E+00,
  0.1300E-06,  0.4498E+00,
  0.1400E-06,  0.4485E+00,
  0.1500E-06,  0.4472E+00,
  0.1600E-06,  0.4458E+00,
  0.1700E-06,  0.4443E+00,
  0.1800E-06,  0.4427E+00,
  0.1900E-06,  0.4410E+00,
  0.2000E-06,  0.4392E+00,
  0.2100E-06,  0.4374E+00,
  0.2200E-06,  0.4354E+00,
  0.2300E-06,  0.4334E+00,
  0.2400E-06,  0.4313E+00,
  0.2500E-06,  0.4292E+00,
  0.2600E-06,  0.4269E+00,
  0.2700E-06,  0.4246E+00,
  0.2800E-06,  0.4222E+00,
  0.2900E-06,  0.4197E+00,
  0.3000E-06,  0.4171E+00,
  0.3100E-06,  0.4145E+00,
  0.3200E-06,  0.4118E+00,
  0.3300E-06,  0.4090E+00,
  0.3400E-06,  0.4061E+00,
  0.3500E-06,  0.4032E+00,
  0.3600E-06,  0.4003E+00,
  0.3700E-06,  0.3972E+00,
  0.3800E-06,  0.3941E+00,
  0.3900E-06,  0.3909E+00,
  0.4000E-06,  0.3877E+00,
  0.4100E-06,  0.3844E+00,
  0.4200E-06,  0.3811E+00,
  0.4300E-06,  0.3777E+00,
  0.4400E-06,  0.3742E+00,
  0.4500E-06,  0.3707E+00,
  0.4600E-06,  0.3672E+00,
  0.4700E-06,  0.3636E+00,
  0.4800E-06,  0.3599E+00,
  0.4900E-06,  0.3563E+00,
  0.5000E-06,  0.3525E+00,
  0.5100E-06,  0.3488E+00,
  0.5200E-06,  0.3449E+00,
  0.5300E-06,  0.3411E+00,
  0.5400E-06,  0.3372E+00,
  0.5500E-06,  0.3333E+00,
  0.5600E-06,  0.3294E+00,
  0.5700E-06,  0.3254E+00,
  0.5800E-06,  0.3214E+00,
  0.5900E-06,  0.3174E+00,
  0.6000E-06,  0.3133E+00,
  0.6100E-06,  0.3092E+00,
  0.6200E-06,  0.3051E+00,
  0.6300E-06,  0.3010E+00,
  0.6400E-06,  0.2969E+00,
  0.6500E-06,  0.2928E+00,
  0.6600E-06,  0.2886E+00,
  0.6700E-06,  0.2844E+00,
  0.6800E-06,  0.2803E+00,
  0.6900E-06,  0.2761E+00,
  0.7000E-06,  0.2719E+00,
  0.7100E-06,  0.2677E+00,
  0.7200E-06,  0.2635E+00,
  0.7300E-06,  0.2594E+00,
  0.7400E-06,  0.2552E+00,
  0.7500E-06,  0.2510E+00,
  0.7600E-06,  0.2468E+00,
  0.7700E-06,  0.2427E+00,
  0.7800E-06,  0.2385E+00,
  0.7900E-06,  0.2344E+00,
  0.8000E-06,  0.2303E+00,
  0.8100E-06,  0.2261E+00,
  0.8200E-06,  0.2220E+00,
  0.8300E-06,  0.2180E+00,
  0.8400E-06,  0.2139E+00,
  0.8500E-06,  0.2099E+00,
  0.8600E-06,  0.2059E+00,
  0.8700E-06,  0.2019E+00,
  0.8800E-06,  0.1979E+00,
  0.8900E-06,  0.1940E+00,
  0.9000E-06,  0.1901E+00,
  0.9100E-06,  0.1862E+00,
  0.9200E-06,  0.1823E+00,
  0.9300E-06,  0.1785E+00,
  0.9400E-06,  0.1747E+00,
  0.9500E-06,  0.1710E+00,
  0.9600E-06,  0.1672E+00,
  0.9700E-06,  0.1636E+00,
  0.9800E-06,  0.1599E+00,
  0.9900E-06,  0.1563E+00,
  0.1000E-05,  0.1528E+00,
  0.1010E-05,  0.1492E+00,
  0.1020E-05,  0.1457E+00,
  0.1030E-05,  0.1423E+00,
  0.1040E-05,  0.1389E+00,
  0.1050E-05,  0.1355E+00,
  0.1060E-05,  0.1322E+00,
  0.1070E-05,  0.1290E+00,
  0.1080E-05,  0.1257E+00,
  0.1090E-05,  0.1226E+00,
  0.1100E-05,  0.1194E+00,
  0.1110E-05,  0.1164E+00,
  0.1120E-05,  0.1133E+00,
  0.1130E-05,  0.1103E+00,
  0.1140E-05,  0.1074E+00,
  0.1150E-05,  0.1045E+00,
  0.1160E-05,  0.1017E+00,
  0.1170E-05,  0.9886E-01,
  0.1180E-05,  0.9612E-01,
  0.1190E-05,  0.9342E-01,
  0.1200E-05,  0.9077E-01,
  0.1210E-05,  0.8817E-01,
  0.1220E-05,  0.8562E-01,
  0.1230E-05,  0.8312E-01,
  0.1240E-05,  0.8067E-01,
  0.1250E-05,  0.7827E-01,
  0.1260E-05,  0.7592E-01,
  0.1270E-05,  0.7361E-01,
  0.1280E-05,  0.7136E-01,
  0.1290E-05,  0.6915E-01,
  0.1300E-05,  0.6699E-01,
  0.1310E-05,  0.6488E-01,
  0.1320E-05,  0.6282E-01,
  0.1330E-05,  0.6080E-01,
  0.1340E-05,  0.5883E-01,
  0.1350E-05,  0.5691E-01,
  0.1360E-05,  0.5503E-01,
  0.1370E-05,  0.5320E-01,
  0.1380E-05,  0.5141E-01,
  0.1390E-05,  0.4967E-01,
  0.1400E-05,  0.4797E-01,
  0.1410E-05,  0.4632E-01,
  0.1420E-05,  0.4471E-01,
  0.1430E-05,  0.4314E-01,
  0.1440E-05,  0.4162E-01,
  0.1450E-05,  0.4013E-01,
  0.1460E-05,  0.3869E-01,
  0.1470E-05,  0.3729E-01,
  0.1480E-05,  0.3592E-01,
  0.1490E-05,  0.3460E-01,
  0.1500E-05,  0.3331E-01,
  0.1510E-05,  0.3206E-01,
  0.1520E-05,  0.3085E-01,
  0.1530E-05,  0.2967E-01,
  0.1540E-05,  0.2854E-01,
  0.1550E-05,  0.2743E-01,
  0.1560E-05,  0.2636E-01,
  0.1570E-05,  0.2532E-01,
  0.1580E-05,  0.2432E-01,
  0.1590E-05,  0.2335E-01,
  0.1600E-05,  0.2241E-01,
  0.1610E-05,  0.2150E-01,
  0.1620E-05,  0.2062E-01,
  0.1630E-05,  0.1977E-01,
  0.1640E-05,  0.1895E-01,
  0.1650E-05,  0.1816E-01,
  0.1660E-05,  0.1739E-01,
  0.1670E-05,  0.1666E-01,
  0.1680E-05,  0.1594E-01,
  0.1690E-05,  0.1526E-01,
  0.1700E-05,  0.1460E-01,
  0.1710E-05,  0.1396E-01,
  0.1720E-05,  0.1335E-01,
  0.1730E-05,  0.1275E-01,
  0.1740E-05,  0.1218E-01,
  0.1750E-05,  0.1164E-01,
  0.1760E-05,  0.1111E-01,
  0.1770E-05,  0.1060E-01,
  0.1780E-05,  0.1012E-01,
  0.1790E-05,  0.9650E-02,
  0.1800E-05,  0.9201E-02,
  0.1810E-05,  0.8770E-02,
  0.1820E-05,  0.8356E-02,
  0.1830E-05,  0.7959E-02,
  0.1840E-05,  0.7579E-02,
  0.1850E-05,  0.7214E-02,
  0.1860E-05,  0.6865E-02,
  0.1870E-05,  0.6530E-02,
  0.1880E-05,  0.6209E-02,
  0.1890E-05,  0.5903E-02,
  0.1900E-05,  0.5609E-02,
  0.1910E-05,  0.5328E-02,
  0.1920E-05,  0.5060E-02,
  0.1930E-05,  0.4803E-02,
  0.1940E-05,  0.4558E-02,
  0.1950E-05,  0.4324E-02,
  0.1960E-05,  0.4101E-02,
  0.1970E-05,  0.3888E-02,
  0.1980E-05,  0.3684E-02,
  0.1990E-05,  0.3490E-02,
